hpchub_mpirun /home/opc/nfs-share/hpchub_benchmark/tests/osu/osu-micro-benchmarks-5.4/mpi/pt2pt/osu_mbw_mr -V -m 2097152 | tee -a ../../../runs/run/osu/opc-6-nodes-36-cores/Oracle/2019-01-11_13:29:45/osu_mbw_mr.2.2.out
cat machinefile
hpc-lhr2-02-rdma slots=2
hpc-lhr2-03-rdma slots=2
mpirun -mca btl self -x UCX_TLS=rc,self,sm -x HCOLL_ENABLE_MCAST_ALL=0 -mca coll_hcoll_enable 0 -x UCX_IB_TRAFFIC_CLASS=105 -x UCX_IB_GID_INDEX=3 -np 4 -machinefile machinefile --map-by socket:pe=1 --bind-to core  /home/opc/nfs-share/hpchub_benchmark/tests/osu/osu-micro-benchmarks-5.4/mpi/pt2pt/osu_mbw_mr -V -m 2097152
# OSU MPI Multiple Bandwidth / Message Rate Test v5.4.0
# [ pairs: 2 ] [ window size: varied ]

# Uni-directional Bandwidth (MB/sec)
#                 8          16          32          64         128         256         512
1              3.24        4.93        6.81        8.68        9.80       10.09        9.62
2              6.65       10.12       14.11       17.35       19.59       20.15       19.25
4             13.58       20.25       28.19       34.71       39.16       40.36       38.50
8             27.17       41.32       55.96       69.19       78.38       80.75       76.95
16            53.76       83.04      114.26      138.39      156.57      161.55      153.94
32           108.11      166.26      227.39      278.87      312.71      322.88      307.72
64           204.17      305.72      414.22      513.80      584.57      606.91      583.16
128          335.30      515.75      718.30      897.99     1021.15     1051.41     1041.57
256          649.70      991.12     1378.06     1727.74     1977.53     2027.55     1952.65
512         1231.66     1854.31     2555.49     3189.21     3655.86     3805.66     3585.46
1024        2253.88     3219.11     4326.11     5339.61     6120.03     6604.00     6575.11
2048        3683.59     5240.67     6649.02     8146.92     9345.63    10066.88    10031.05
4096        5543.27     7515.77     9372.67    10697.40    11398.60    11718.44    11821.07
8192        7827.15     9761.83    10983.81    11770.34    12002.42    12034.53    12050.85
16384       9738.06    11045.14    11784.06    11963.49    12049.55    12061.56    12125.93
32768      11730.62    12063.60    12131.97    12199.85    12246.13    12235.00    12250.55
65536      12144.79    12216.70    12225.89    12163.18    12215.46    12218.60    12221.67
131072     12192.83    12257.59    12243.62    12230.58    12237.62    12236.42    12238.02
262144     11964.90    12123.13    12220.79    12258.54    12253.26    12248.15    12250.63
524288     12191.39    12252.15    12255.92    12251.87    12251.65    12251.16    12252.50
1048576    12189.26    12228.76    12253.82    12252.06    12252.96    12252.51    12251.35
2097152    12231.47    12253.55    12253.19    12254.10    12253.96    12253.48    12253.57

# Message Rate Profile
#                 8          16          32          64         128         256         512
1        3235068.14  4931525.02  6813026.07  8684189.28  9802213.54  10086038.63  9616054.15
2        3324081.30  5059868.52  7052827.33  8676292.62  9794042.01  10077414.03  9627288.10
4        3395110.17  5061265.03  7046669.32  8677942.57  9789225.73  10088832.96  9624823.62
8        3396367.80  5165439.34  6995288.56  8649311.96  9797661.08  10093279.05  9618177.15
16       3360204.48  5190028.01  7141486.25  8649095.72  9785839.20  10097090.83  9621552.58
32       3378339.15  5195741.43  7106026.34  8714623.64  9772105.72  10090106.42  9616363.89
64       3190145.65  4776818.09  6472167.90  8028201.57  9133910.80  9482917.97  9111827.71
128      2619532.55  4029315.79  5611731.32  7015582.27  7977770.69  8214151.93  8137238.99
256      2537908.01  3871575.01  5383059.36  6748995.62  7724721.12  7920099.81  7627558.25
512      2405584.56  3621697.82  4991187.43  6228933.25  7140347.86  7432926.91  7002853.08
1024     2201056.92  3143657.80  4224720.82  5214458.88  5976589.28  6449216.39  6421007.53
2048     1798629.89  2558919.11  3246590.20  3977988.05  4563294.09  4915466.69  4897971.87
4096     1353338.50  1834905.00  2288248.52  2611669.53  2782862.18  2860946.46  2886004.39
8192      955462.32  1191629.25  1340797.10  1436809.11  1465139.20  1469059.22  1471050.91
16384     594363.80   674141.70   719242.06   730193.42   735446.37   736179.05   740107.88
32768     357989.97   368151.77   370238.29   372309.79   373722.35   373382.48   373857.01
65536     185314.78   186412.11   186552.33   185595.44   186393.20   186441.10   186487.96
131072     93023.95    93518.02    93411.37    93311.92    93365.62    93356.51    93368.68
262144     45642.45    46246.09    46618.62    46762.60    46742.49    46722.98    46732.46
524288     23253.23    23369.12    23376.32    23368.58    23368.17    23367.24    23369.79
1048576    11624.59    11662.25    11686.15    11684.47    11685.34    11684.90    11683.79
2097152     5832.42     5842.95     5842.78     5843.21     5843.14     5842.91     5842.96
