hpchub_mpirun /home/opc/nfs-share/hpchub_benchmark/tests/osu/osu-micro-benchmarks-5.4/mpi/pt2pt/osu_mbw_mr -V -m 2097152 | tee -a ../../../runs/run/osu/opc-6-nodes-36-cores/Oracle/2019-01-11_13:29:45/osu_mbw_mr.2.1.out
cat machinefile
hpc-lhr2-02-rdma slots=1
hpc-lhr2-03-rdma slots=1
mpirun -mca btl self -x UCX_TLS=rc,self,sm -x HCOLL_ENABLE_MCAST_ALL=0 -mca coll_hcoll_enable 0 -x UCX_IB_TRAFFIC_CLASS=105 -x UCX_IB_GID_INDEX=3 -np 2 -machinefile machinefile --map-by socket:pe=1 --bind-to core  /home/opc/nfs-share/hpchub_benchmark/tests/osu/osu-micro-benchmarks-5.4/mpi/pt2pt/osu_mbw_mr -V -m 2097152
# OSU MPI Multiple Bandwidth / Message Rate Test v5.4.0
# [ pairs: 1 ] [ window size: varied ]

# Uni-directional Bandwidth (MB/sec)
#                 8          16          32          64         128         256         512
1              1.77        2.74        3.87        5.09        5.81        5.96        5.60
2              3.70        5.76        8.15       10.19       11.63       11.92       11.22
4              7.47       11.50       16.28       20.34       23.15       23.89       22.42
8             15.05       23.36       32.35       40.60       46.46       47.77       44.89
16            29.56       47.09       65.98       81.04       92.68       95.56       89.94
32            59.46       94.36      131.72      163.49      184.91      190.99      179.39
64           121.22      185.39      254.72      312.43      352.02      360.85      341.29
128          189.50      298.61      416.48      521.12      590.75      602.88      593.84
256          370.85      582.38      805.17     1002.11     1143.13     1158.65     1102.84
512          698.91     1096.06     1535.28     1908.35     2169.47     2186.05     2016.71
1024        1277.27     1897.31     2617.73     3280.02     3765.96     3899.94     3771.35
2048        2217.79     3267.99     4304.57     5484.82     6576.33     6909.06     6487.66
4096        3318.02     4894.29     6595.31     8211.14     9580.91    10380.98    10726.13
8192        4786.57     6535.91     8322.42     9718.44    10507.41     8480.50     8127.71
16384       6378.22     7314.94     7985.83     8384.92     8744.30     9253.36    10051.86
32768       7796.18     8959.52     9713.10    10160.83    10579.47    11069.93    11294.67
65536      10035.80    11029.13    11579.53    11876.73    12014.28    12018.10    12033.58
131072     10932.91    11526.69    11833.57    11975.47    12052.81    12072.57    12076.98
262144     11528.65    11832.86    12000.61    12082.31    12135.10    12143.95    12150.87
524288     11848.68    12020.93    12093.85    12138.88    12159.85    12162.67    12170.75
1048576    12016.55    12120.46    12158.83    12184.02    12195.55    12197.69    12195.89
2097152    12099.40    12162.86    12198.48    12208.39    12209.82    12214.09    12206.35

# Message Rate Profile
#                 8          16          32          64         128         256         512
1        1771961.80  2743757.09  3869636.77  5094312.44  5806284.21  5957356.50  5596703.10
2        1850810.77  2878225.86  4076827.82  5097209.36  5812929.04  5959823.80  5607962.26
4        1867526.98  2874404.69  4069305.36  5084934.30  5786532.11  5973417.36  5605410.01
8        1880697.92  2919963.79  4043528.59  5075087.51  5807000.69  5971746.64  5611286.66
16       1847741.49  2943059.16  4123737.92  5064769.71  5792216.89  5972745.62  5621022.54
32       1858144.59  2948651.08  4116290.35  5109013.58  5778415.81  5968378.78  5605908.98
64       1894078.41  2896745.52  3979955.94  4881669.10  5500273.51  5638220.09  5332652.31
128      1480469.82  2332858.01  3253712.29  4071277.90  4615198.79  4710038.27  4639383.53
256      1448648.14  2274927.87  3145182.61  3914497.59  4465335.39  4525972.45  4307987.81
512      1365061.93  2140737.43  2998599.09  3727247.06  4237243.25  4269638.34  3938882.70
1024     1247329.94  1852842.61  2556380.17  3203145.49  3677692.75  3808539.94  3682961.47
2048     1082905.93  1595699.59  2101839.37  2678133.54  3211100.78  3373563.07  3167804.61
4096      810063.42  1194895.70  1610181.99  2004672.14  2339089.81  2534420.10  2618684.46
8192      584298.16   797840.25  1015920.43  1186333.29  1282643.01  1035217.74   992151.73
16384     389295.35   446468.81   487416.43   511774.90   533709.93   564780.39   613517.14
32768     237920.62   273422.85   296420.33   310083.84   322859.73   337827.52   344685.91
65536     153134.11   168291.20   176689.62   181224.46   183323.42   183381.67   183617.82
131072     83411.51    87941.67    90282.97    91365.59    91955.63    92106.38    92140.08
262144     43978.33    45138.79    45778.68    46090.36    46291.75    46325.50    46351.88
524288     22599.57    22928.10    23067.19    23153.09    23193.08    23198.44    23213.86
1048576    11459.88    11558.98    11595.56    11619.58    11630.58    11632.62    11630.91
2097152     5769.44     5799.70     5816.69     5821.41     5822.09     5824.13     5820.44
